Unit Serial No : 240-IM0P2424-EU
Integration Time : 10 ms
Time Average: 10
Binning Average: 2
FFT Smoothing: 0%
Project Name : RPS900-R 
Sample Name :  SM240-IMOP2424-EU
Measurement No : 1
Measurement Time : 06/03/2019   14:43:50

Wavelength(nm)	Wavenumber(1/cm)	Transmittance(%)
300.0000      	33333.3333    	13.25485      
301.0000      	33222.5914    	13.23814      
302.0000      	33112.5828    	12.68569      
303.0000      	33003.3003    	11.91708      
304.0000      	32894.7368    	12.64441      
305.0000      	32786.8852    	11.18273      
306.0000      	32679.7386    	11.50435      
307.0000      	32573.2899    	12.41472      
308.0000      	32467.5325    	12.83669      
309.0000      	32362.4595    	12.10378      
310.0000      	32258.0645    	11.07709      
311.0000      	32154.3408    	10.43661      
312.0000      	32051.2821    	9.66482       
313.0000      	31948.8818    	9.95412       
314.0000      	31847.1338    	9.73552       
315.0000      	31746.0317    	9.09410       
316.0000      	31645.5696    	8.77509       
317.0000      	31545.7413    	8.57413       
318.0000      	31446.5409    	9.35093       
319.0000      	31347.9624    	9.07339       
320.0000      	31250.0000    	8.87234       
321.0000      	31152.6480    	7.56241       
322.0000      	31055.9006    	7.61067       
323.0000      	30959.7523    	8.13649       
324.0000      	30864.1975    	8.13761       
325.0000      	30769.2308    	7.93424       
326.0000      	30674.8466    	7.89405       
327.0000      	30581.0398    	8.26786       
328.0000      	30487.8049    	7.82901       
329.0000      	30395.1368    	7.46823       
330.0000      	30303.0303    	7.26585       
331.0000      	30211.4804    	7.29245       
332.0000      	30120.4819    	7.63576       
333.0000      	30030.0300    	7.49286       
334.0000      	29940.1198    	7.90465       
335.0000      	29850.7463    	7.44337       
336.0000      	29761.9048    	7.20950       
337.0000      	29673.5905    	6.99858       
338.0000      	29585.7988    	7.32140       
339.0000      	29498.5251    	7.31010       
340.0000      	29411.7647    	7.39992       
341.0000      	29325.5132    	7.24483       
342.0000      	29239.7661    	7.24677       
343.0000      	29154.5190    	7.07176       
344.0000      	29069.7674    	7.21017       
345.0000      	28985.5072    	7.29202       
346.0000      	28901.7341    	7.29677       
347.0000      	28818.4438    	7.12742       
348.0000      	28735.6322    	7.04424       
349.0000      	28653.2951    	7.21508       
350.0000      	28571.4286    	7.54383       
351.0000      	28490.0285    	7.61672       
352.0000      	28409.0909    	7.45547       
353.0000      	28328.6119    	7.26104       
354.0000      	28248.5876    	7.44166       
355.0000      	28169.0141    	7.53244       
356.0000      	28089.8876    	7.88880       
357.0000      	28011.2045    	7.89725       
358.0000      	27932.9609    	7.91979       
359.0000      	27855.1532    	7.99616       
360.0000      	27777.7778    	7.91318       
361.0000      	27700.8310    	7.90569       
362.0000      	27624.3094    	8.02444       
363.0000      	27548.2094    	8.03648       
364.0000      	27472.5275    	7.90834       
365.0000      	27397.2603    	7.90562       
366.0000      	27322.4044    	8.22749       
367.0000      	27247.9564    	8.39974       
368.0000      	27173.9130    	8.46961       
369.0000      	27100.2710    	8.49172       
370.0000      	27027.0270    	8.57370       
371.0000      	26954.1779    	8.62550       
372.0000      	26881.7204    	8.77601       
373.0000      	26809.6515    	8.92147       
374.0000      	26737.9679    	8.99099       
375.0000      	26666.6667    	9.09663       
376.0000      	26595.7447    	9.40015       
377.0000      	26525.1989    	9.69464       
378.0000      	26455.0265    	9.93423       
379.0000      	26385.2243    	10.08876      
380.0000      	26315.7895    	10.23474      
381.0000      	26246.7192    	10.28667      
382.0000      	26178.0105    	10.44913      
383.0000      	26109.6606    	10.82004      
384.0000      	26041.6667    	11.03008      
385.0000      	25974.0260    	11.16048      
386.0000      	25906.7358    	11.26482      
387.0000      	25839.7933    	11.53914      
388.0000      	25773.1959    	11.89600      
389.0000      	25706.9409    	12.23409      
390.0000      	25641.0256    	12.57120      
391.0000      	25575.4476    	12.77238      
392.0000      	25510.2041    	12.90418      
393.0000      	25445.2926    	13.20162      
394.0000      	25380.7107    	13.46103      
395.0000      	25316.4557    	13.75524      
396.0000      	25252.5253    	14.06031      
397.0000      	25188.9169    	14.34436      
398.0000      	25125.6281    	14.67381      
399.0000      	25062.6566    	15.05640      
400.0000      	25000.0000    	15.49700      
401.0000      	24937.6559    	15.81997      
402.0000      	24875.6219    	15.96262      
403.0000      	24813.8958    	16.15783      
404.0000      	24752.4752    	16.52312      
405.0000      	24691.3580    	17.14443      
406.0000      	24630.5419    	17.60942      
407.0000      	24570.0246    	17.95268      
408.0000      	24509.8039    	18.25438      
409.0000      	24449.8778    	18.58564      
410.0000      	24390.2439    	19.08533      
411.0000      	24330.9002    	19.56646      
412.0000      	24271.8447    	19.75988      
413.0000      	24213.0751    	20.03572      
414.0000      	24154.5894    	20.35351      
415.0000      	24096.3855    	20.69676      
416.0000      	24038.4615    	20.91133      
417.0000      	23980.8153    	21.10258      
418.0000      	23923.4450    	21.18493      
419.0000      	23866.3484    	21.32253      
420.0000      	23809.5238    	21.30955      
421.0000      	23752.9691    	21.43781      
422.0000      	23696.6825    	21.64831      
423.0000      	23640.6619    	21.87347      
424.0000      	23584.9057    	22.05412      
425.0000      	23529.4118    	22.26650      
426.0000      	23474.1784    	22.57057      
427.0000      	23419.2037    	22.75789      
428.0000      	23364.4860    	22.79657      
429.0000      	23310.0233    	22.78780      
430.0000      	23255.8140    	22.83908      
431.0000      	23201.8561    	22.92788      
432.0000      	23148.1481    	23.14809      
433.0000      	23094.6882    	23.38689      
434.0000      	23041.4747    	23.60140      
435.0000      	22988.5057    	23.87715      
436.0000      	22935.7798    	24.09854      
437.0000      	22883.2952    	24.29942      
438.0000      	22831.0502    	24.31349      
439.0000      	22779.0433    	24.32584      
440.0000      	22727.2727    	24.37221      
441.0000      	22675.7370    	24.34192      
442.0000      	22624.4344    	24.43563      
443.0000      	22573.3634    	24.60654      
444.0000      	22522.5225    	24.80962      
445.0000      	22471.9101    	24.85364      
446.0000      	22421.5247    	24.83232      
447.0000      	22371.3647    	24.84960      
448.0000      	22321.4286    	24.83043      
449.0000      	22271.7149    	24.90939      
450.0000      	22222.2222    	24.94023      
451.0000      	22172.9490    	25.00047      
452.0000      	22123.8938    	25.20105      
453.0000      	22075.0552    	25.30847      
454.0000      	22026.4317    	25.38460      
455.0000      	21978.0220    	25.39587      
456.0000      	21929.8246    	25.53701      
457.0000      	21881.8381    	25.69168      
458.0000      	21834.0611    	25.74302      
459.0000      	21786.4924    	25.77985      
460.0000      	21739.1304    	25.97435      
461.0000      	21691.9740    	26.18615      
462.0000      	21645.0216    	26.27720      
463.0000      	21598.2721    	26.44567      
464.0000      	21551.7241    	26.57905      
465.0000      	21505.3763    	26.81669      
466.0000      	21459.2275    	27.05687      
467.0000      	21413.2762    	27.21924      
468.0000      	21367.5214    	27.36467      
469.0000      	21321.9616    	27.56962      
470.0000      	21276.5957    	27.68484      
471.0000      	21231.4225    	27.86255      
472.0000      	21186.4407    	28.09680      
473.0000      	21141.6490    	28.35391      
474.0000      	21097.0464    	28.63914      
475.0000      	21052.6316    	28.82669      
476.0000      	21008.4034    	29.00892      
477.0000      	20964.3606    	29.24162      
478.0000      	20920.5021    	29.40540      
479.0000      	20876.8267    	29.75337      
480.0000      	20833.3333    	30.01492      
481.0000      	20790.0208    	30.25365      
482.0000      	20746.8880    	30.53192      
483.0000      	20703.9337    	30.83643      
484.0000      	20661.1570    	31.18128      
485.0000      	20618.5567    	31.32317      
486.0000      	20576.1317    	31.55325      
487.0000      	20533.8809    	31.74902      
488.0000      	20491.8033    	32.02446      
489.0000      	20449.8978    	32.37466      
490.0000      	20408.1633    	32.62957      
491.0000      	20366.5988    	32.94960      
492.0000      	20325.2033    	33.12099      
493.0000      	20283.9757    	33.44327      
494.0000      	20242.9150    	33.66436      
495.0000      	20202.0202    	33.82413      
496.0000      	20161.2903    	34.02600      
497.0000      	20120.7243    	34.15399      
498.0000      	20080.3213    	34.29307      
499.0000      	20040.0802    	34.38699      
500.0000      	20000.0000    	34.57920      
501.0000      	19960.0798    	34.69199      
502.0000      	19920.3187    	34.73971      
503.0000      	19880.7157    	34.80072      
504.0000      	19841.2698    	34.84836      
505.0000      	19801.9802    	34.80501      
506.0000      	19762.8458    	34.75567      
507.0000      	19723.8659    	34.61821      
508.0000      	19685.0394    	34.40210      
509.0000      	19646.3654    	34.11470      
510.0000      	19607.8431    	33.83751      
511.0000      	19569.4716    	33.56775      
512.0000      	19531.2500    	33.13029      
513.0000      	19493.1774    	32.86738      
514.0000      	19455.2529    	32.35390      
515.0000      	19417.4757    	31.86168      
516.0000      	19379.8450    	31.30279      
517.0000      	19342.3598    	30.68301      
518.0000      	19305.0193    	30.07298      
519.0000      	19267.8227    	29.75484      
520.0000      	19230.7692    	29.12048      
521.0000      	19193.8580    	28.44642      
522.0000      	19157.0881    	27.86937      
523.0000      	19120.4589    	27.27061      
524.0000      	19083.9695    	26.67305      
525.0000      	19047.6190    	26.03893      
526.0000      	19011.4068    	25.77611      
527.0000      	18975.3321    	25.24745      
528.0000      	18939.3939    	24.77839      
529.0000      	18903.5917    	24.37345      
530.0000      	18867.9245    	24.02931      
531.0000      	18832.3917    	23.69470      
532.0000      	18796.9925    	23.39448      
533.0000      	18761.7261    	23.26556      
534.0000      	18726.5918    	23.01231      
535.0000      	18691.5888    	22.78082      
536.0000      	18656.7164    	22.58937      
537.0000      	18621.9739    	22.42840      
538.0000      	18587.3606    	22.34954      
539.0000      	18552.8757    	22.32166      
540.0000      	18518.5185    	22.31563      
541.0000      	18484.2884    	22.24703      
542.0000      	18450.1845    	22.19514      
543.0000      	18416.2063    	22.18992      
544.0000      	18382.3529    	22.19627      
545.0000      	18348.6239    	22.20082      
546.0000      	18315.0183    	22.22010      
547.0000      	18281.5356    	22.25816      
548.0000      	18248.1752    	22.19357      
549.0000      	18214.9362    	22.02411      
550.0000      	18181.8182    	21.87588      
551.0000      	18148.8203    	21.78618      
552.0000      	18115.9420    	21.55905      
553.0000      	18083.1826    	21.33384      
554.0000      	18050.5415    	21.06537      
555.0000      	18018.0180    	20.73579      
556.0000      	17985.6115    	20.40525      
557.0000      	17953.3214    	20.06425      
558.0000      	17921.1470    	19.92285      
559.0000      	17889.0877    	19.58086      
560.0000      	17857.1429    	19.23044      
561.0000      	17825.3119    	18.82506      
562.0000      	17793.5943    	18.47176      
563.0000      	17761.9893    	18.18666      
564.0000      	17730.4965    	18.06140      
565.0000      	17699.1150    	17.82193      
566.0000      	17667.8445    	17.59476      
567.0000      	17636.6843    	17.39126      
568.0000      	17605.6338    	17.24653      
569.0000      	17574.6924    	17.22451      
570.0000      	17543.8596    	17.23862      
571.0000      	17513.1349    	17.27617      
572.0000      	17482.5175    	17.39214      
573.0000      	17452.0070    	17.58224      
574.0000      	17421.6028    	17.79172      
575.0000      	17391.3043    	17.91148      
576.0000      	17361.1111    	18.19572      
577.0000      	17331.0225    	18.51355      
578.0000      	17301.0381    	18.86078      
579.0000      	17271.1572    	19.33096      
580.0000      	17241.3793    	19.85233      
581.0000      	17211.7040    	20.13235      
582.0000      	17182.1306    	20.67104      
583.0000      	17152.6587    	21.17100      
584.0000      	17123.2877    	21.68084      
585.0000      	17094.0171    	22.26687      
586.0000      	17064.8464    	22.83358      
587.0000      	17035.7751    	23.13813      
588.0000      	17006.8027    	23.66139      
589.0000      	16977.9287    	24.19383      
590.0000      	16949.1525    	24.61866      
591.0000      	16920.4738    	24.99257      
592.0000      	16891.8919    	25.28983      
593.0000      	16863.4064    	25.44967      
594.0000      	16835.0168    	25.79312      
595.0000      	16806.7227    	26.10150      
596.0000      	16778.5235    	26.24212      
597.0000      	16750.4188    	26.34958      
598.0000      	16722.4080    	26.46765      
599.0000      	16694.4908    	26.49814      
600.0000      	16666.6667    	26.57132      
601.0000      	16638.9351    	26.60484      
602.0000      	16611.2957    	26.58843      
603.0000      	16583.7479    	26.57091      
604.0000      	16556.2914    	26.55192      
605.0000      	16528.9256    	26.60550      
606.0000      	16501.6502    	26.62511      
607.0000      	16474.4646    	26.53677      
608.0000      	16447.3684    	26.44266      
609.0000      	16420.3612    	26.41023      
610.0000      	16393.4426    	26.45106      
611.0000      	16366.6121    	26.52331      
612.0000      	16339.8693    	26.56341      
613.0000      	16313.2137    	26.50686      
614.0000      	16286.6450    	26.44742      
615.0000      	16260.1626    	26.41181      
616.0000      	16233.7662    	26.38470      
617.0000      	16207.4554    	26.41431      
618.0000      	16181.2298    	26.42881      
619.0000      	16155.0889    	26.46938      
620.0000      	16129.0323    	26.49161      
621.0000      	16103.0596    	26.48159      
622.0000      	16077.1704    	26.43901      
623.0000      	16051.3644    	26.47543      
624.0000      	16025.6410    	26.55585      
625.0000      	16000.0000    	26.59625      
626.0000      	15974.4409    	26.63234      
627.0000      	15948.9633    	26.68226      
628.0000      	15923.5669    	26.72468      
629.0000      	15898.2512    	26.73731      
630.0000      	15873.0159    	26.65859      
631.0000      	15847.8605    	26.61924      
632.0000      	15822.7848    	26.67914      
633.0000      	15797.7883    	26.86444      
634.0000      	15772.8707    	26.99283      
635.0000      	15748.0315    	27.07635      
636.0000      	15723.2704    	27.10097      
637.0000      	15698.5871    	27.13538      
638.0000      	15673.9812    	27.20261      
639.0000      	15649.4523    	27.33521      
640.0000      	15625.0000    	27.51648      
641.0000      	15600.6240    	27.55905      
642.0000      	15576.3240    	27.57393      
643.0000      	15552.0995    	27.69772      
644.0000      	15527.9503    	27.95721      
645.0000      	15503.8760    	28.23738      
646.0000      	15479.8762    	28.49929      
647.0000      	15455.9505    	28.56756      
648.0000      	15432.0988    	28.71949      
649.0000      	15408.3205    	28.87251      
650.0000      	15384.6154    	29.09589      
651.0000      	15360.9831    	29.31727      
652.0000      	15337.4233    	29.55736      
653.0000      	15313.9357    	29.69092      
654.0000      	15290.5199    	29.90162      
655.0000      	15267.1756    	30.16085      
656.0000      	15243.9024    	30.44627      
657.0000      	15220.7002    	30.71869      
658.0000      	15197.5684    	30.86969      
659.0000      	15174.5068    	31.09138      
660.0000      	15151.5152    	31.29021      
661.0000      	15128.5930    	31.37507      
662.0000      	15105.7402    	31.57251      
663.0000      	15082.9563    	31.70903      
664.0000      	15060.2410    	31.95100      
665.0000      	15037.5940    	32.22748      
666.0000      	15015.0150    	32.40937      
667.0000      	14992.5037    	32.48104      
668.0000      	14970.0599    	32.47678      
669.0000      	14947.6831    	32.48528      
670.0000      	14925.3731    	32.58714      
671.0000      	14903.1297    	32.69705      
672.0000      	14880.9524    	32.70041      
673.0000      	14858.8410    	32.69296      
674.0000      	14836.7953    	32.60981      
675.0000      	14814.8148    	32.59686      
676.0000      	14792.8994    	32.50613      
677.0000      	14771.0487    	32.43010      
678.0000      	14749.2625    	32.35386      
679.0000      	14727.5405    	32.25509      
680.0000      	14705.8824    	32.16754      
681.0000      	14684.2878    	32.08073      
682.0000      	14662.7566    	31.97869      
683.0000      	14641.2884    	31.85344      
684.0000      	14619.8830    	31.74791      
685.0000      	14598.5401    	31.60977      
686.0000      	14577.2595    	31.47041      
687.0000      	14556.0408    	31.22800      
688.0000      	14534.8837    	31.19767      
689.0000      	14513.7881    	31.08052      
690.0000      	14492.7536    	30.97935      
691.0000      	14471.7800    	30.76603      
692.0000      	14450.8671    	30.63709      
693.0000      	14430.0144    	30.59286      
694.0000      	14409.2219    	30.60262      
695.0000      	14388.4892    	30.55345      
696.0000      	14367.8161    	30.43302      
697.0000      	14347.2023    	30.21645      
698.0000      	14326.6476    	30.13465      
699.0000      	14306.1516    	29.82874      
700.0000      	14285.7143    	29.71264      
701.0000      	14265.3352    	29.58922      
702.0000      	14245.0142    	29.38535      
703.0000      	14224.7511    	29.23637      
704.0000      	14204.5455    	28.98468      
705.0000      	14184.3972    	28.96443      
706.0000      	14164.3059    	28.80161      
707.0000      	14144.2716    	28.64738      
708.0000      	14124.2938    	28.56440      
709.0000      	14104.3724    	28.43694      
710.0000      	14084.5070    	28.35558      
711.0000      	14064.6976    	28.29292      
712.0000      	14044.9438    	28.15359      
713.0000      	14025.2454    	28.10873      
714.0000      	14005.6022    	28.08374      
715.0000      	13986.0140    	28.25416      
716.0000      	13966.4804    	28.32485      
717.0000      	13947.0014    	28.29346      
718.0000      	13927.5766    	28.31181      
719.0000      	13908.2058    	28.47289      
720.0000      	13888.8889    	28.66279      
721.0000      	13869.6255    	28.94398      
722.0000      	13850.4155    	29.32824      
723.0000      	13831.2586    	29.53796      
724.0000      	13812.1547    	29.91049      
725.0000      	13793.1034    	30.12332      
726.0000      	13774.1047    	30.33588      
727.0000      	13755.1582    	30.55724      
728.0000      	13736.2637    	30.72431      
729.0000      	13717.4211    	31.26461      
730.0000      	13698.6301    	31.71535      
731.0000      	13679.8906    	32.11892      
732.0000      	13661.2022    	32.32238      
733.0000      	13642.5648    	32.83965      
734.0000      	13623.9782    	33.40028      
735.0000      	13605.4422    	33.87493      
736.0000      	13586.9565    	34.23180      
737.0000      	13568.5210    	34.56562      
738.0000      	13550.1355    	35.34339      
739.0000      	13531.7997    	36.25538      
740.0000      	13513.5135    	37.14684      
741.0000      	13495.2767    	37.97007      
742.0000      	13477.0889    	38.30133      
743.0000      	13458.9502    	39.19101      
744.0000      	13440.8602    	40.22994      
745.0000      	13422.8188    	41.34314      
746.0000      	13404.8257    	42.33204      
747.0000      	13386.8809    	42.95645      
748.0000      	13368.9840    	44.25527      
749.0000      	13351.1348    	45.36865      
750.0000      	13333.3333    	46.64330      
751.0000      	13315.5792    	47.40947      
752.0000      	13297.8723    	48.86596      
753.0000      	13280.2125    	50.27047      
754.0000      	13262.5995    	51.59655      
755.0000      	13245.0331    	53.09622      
756.0000      	13227.5132    	53.86186      
757.0000      	13210.0396    	55.43926      
758.0000      	13192.6121    	56.95505      
759.0000      	13175.2306    	58.20226      
760.0000      	13157.8947    	59.39633      
761.0000      	13140.6045    	59.97486      
762.0000      	13123.3596    	61.28495      
763.0000      	13106.1599    	62.38538      
764.0000      	13089.0052    	63.54062      
765.0000      	13071.8954    	64.04976      
766.0000      	13054.8303    	64.83720      
767.0000      	13037.8096    	65.55688      
768.0000      	13020.8333    	66.29457      
769.0000      	13003.9012    	66.99503      
770.0000      	12987.0130    	67.26380      
771.0000      	12970.1686    	67.82169      
772.0000      	12953.3679    	68.25853      
773.0000      	12936.6106    	68.68273      
774.0000      	12919.8966    	68.89549      
775.0000      	12903.2258    	69.24671      
776.0000      	12886.5979    	69.50501      
777.0000      	12870.0129    	69.74747      
778.0000      	12853.4704    	69.90060      
779.0000      	12836.9705    	70.16798      
780.0000      	12820.5128    	70.59847      
781.0000      	12804.0973    	70.88205      
782.0000      	12787.7238    	70.80814      
783.0000      	12771.3921    	70.99709      
784.0000      	12755.1020    	71.07688      
785.0000      	12738.8535    	71.36416      
786.0000      	12722.6463    	71.32415      
787.0000      	12706.4803    	71.11490      
788.0000      	12690.3553    	71.37604      
789.0000      	12674.2712    	71.46103      
790.0000      	12658.2278    	71.57613      
791.0000      	12642.2250    	71.07092      
792.0000      	12626.2626    	70.89910      
793.0000      	12610.3405    	70.99908      
794.0000      	12594.4584    	71.34315      
795.0000      	12578.6164    	71.66163      
796.0000      	12562.8141    	71.46661      
797.0000      	12547.0514    	71.47365      
798.0000      	12531.3283    	71.40940      
799.0000      	12515.6446    	71.34262      
800.0000      	12500.0000    	71.46337      
