Unit Serial No : 240-IM0P2424-EU
Integration Time : 10 ms
Time Average: 10
Binning Average: 2
FFT Smoothing: 0%
Project Name : RPS900-R 
Sample Name :  SM240-IMOP2424-EU
Measurement No : 1
Measurement Time : 06/03/2019   14:43:13

Wavelength(nm)	Wavenumber(1/cm)	Transmittance(%)
300.0000      	33333.3333    	13.55721      
301.0000      	33222.5914    	13.70117      
302.0000      	33112.5828    	12.73677      
303.0000      	33003.3003    	12.80470      
304.0000      	32894.7368    	13.53183      
305.0000      	32786.8852    	12.70590      
306.0000      	32679.7386    	11.50269      
307.0000      	32573.2899    	11.18318      
308.0000      	32467.5325    	11.66106      
309.0000      	32362.4595    	11.50355      
310.0000      	32258.0645    	10.61573      
311.0000      	32154.3408    	10.20006      
312.0000      	32051.2821    	9.81946       
313.0000      	31948.8818    	10.42789      
314.0000      	31847.1338    	10.88906      
315.0000      	31746.0317    	10.84715      
316.0000      	31645.5696    	10.47270      
317.0000      	31545.7413    	9.71942       
318.0000      	31446.5409    	9.59891       
319.0000      	31347.9624    	8.73760       
320.0000      	31250.0000    	8.86249       
321.0000      	31152.6480    	8.41769       
322.0000      	31055.9006    	8.57605       
323.0000      	30959.7523    	8.78150       
324.0000      	30864.1975    	8.49376       
325.0000      	30769.2308    	8.14213       
326.0000      	30674.8466    	8.06203       
327.0000      	30581.0398    	8.35959       
328.0000      	30487.8049    	8.18305       
329.0000      	30395.1368    	8.12686       
330.0000      	30303.0303    	7.74759       
331.0000      	30211.4804    	7.62923       
332.0000      	30120.4819    	7.93934       
333.0000      	30030.0300    	7.77376       
334.0000      	29940.1198    	8.06122       
335.0000      	29850.7463    	7.66079       
336.0000      	29761.9048    	7.46934       
337.0000      	29673.5905    	7.53027       
338.0000      	29585.7988    	8.01828       
339.0000      	29498.5251    	8.02525       
340.0000      	29411.7647    	7.65658       
341.0000      	29325.5132    	7.51086       
342.0000      	29239.7661    	7.65190       
343.0000      	29154.5190    	7.46905       
344.0000      	29069.7674    	7.48520       
345.0000      	28985.5072    	7.61042       
346.0000      	28901.7341    	7.44187       
347.0000      	28818.4438    	7.34737       
348.0000      	28735.6322    	7.47211       
349.0000      	28653.2951    	7.56255       
350.0000      	28571.4286    	7.67215       
351.0000      	28490.0285    	7.74783       
352.0000      	28409.0909    	7.79043       
353.0000      	28328.6119    	7.73419       
354.0000      	28248.5876    	7.77094       
355.0000      	28169.0141    	7.70146       
356.0000      	28089.8876    	8.09509       
357.0000      	28011.2045    	8.05287       
358.0000      	27932.9609    	7.92379       
359.0000      	27855.1532    	8.05069       
360.0000      	27777.7778    	8.34582       
361.0000      	27700.8310    	8.54429       
362.0000      	27624.3094    	8.51187       
363.0000      	27548.2094    	8.42241       
364.0000      	27472.5275    	8.34713       
365.0000      	27397.2603    	8.27335       
366.0000      	27322.4044    	8.50083       
367.0000      	27247.9564    	8.72426       
368.0000      	27173.9130    	8.85160       
369.0000      	27100.2710    	8.94799       
370.0000      	27027.0270    	8.89764       
371.0000      	26954.1779    	8.85189       
372.0000      	26881.7204    	8.96072       
373.0000      	26809.6515    	9.11370       
374.0000      	26737.9679    	9.32945       
375.0000      	26666.6667    	9.46534       
376.0000      	26595.7447    	9.66630       
377.0000      	26525.1989    	9.79651       
378.0000      	26455.0265    	9.89221       
379.0000      	26385.2243    	10.10032      
380.0000      	26315.7895    	10.39957      
381.0000      	26246.7192    	10.59932      
382.0000      	26178.0105    	10.69485      
383.0000      	26109.6606    	11.00563      
384.0000      	26041.6667    	11.19100      
385.0000      	25974.0260    	11.38338      
386.0000      	25906.7358    	11.62024      
387.0000      	25839.7933    	12.05084      
388.0000      	25773.1959    	12.12832      
389.0000      	25706.9409    	12.33963      
390.0000      	25641.0256    	12.70338      
391.0000      	25575.4476    	12.74363      
392.0000      	25510.2041    	12.83809      
393.0000      	25445.2926    	13.08448      
394.0000      	25380.7107    	13.48620      
395.0000      	25316.4557    	13.88746      
396.0000      	25252.5253    	14.37381      
397.0000      	25188.9169    	14.72855      
398.0000      	25125.6281    	15.01042      
399.0000      	25062.6566    	15.25876      
400.0000      	25000.0000    	15.56589      
401.0000      	24937.6559    	15.99541      
402.0000      	24875.6219    	16.17451      
403.0000      	24813.8958    	16.55009      
404.0000      	24752.4752    	16.81750      
405.0000      	24691.3580    	17.31134      
406.0000      	24630.5419    	17.74609      
407.0000      	24570.0246    	18.04398      
408.0000      	24509.8039    	18.48042      
409.0000      	24449.8778    	18.99078      
410.0000      	24390.2439    	19.36102      
411.0000      	24330.9002    	19.69044      
412.0000      	24271.8447    	19.88157      
413.0000      	24213.0751    	20.34964      
414.0000      	24154.5894    	20.71913      
415.0000      	24096.3855    	21.03955      
416.0000      	24038.4615    	21.25578      
417.0000      	23980.8153    	21.44320      
418.0000      	23923.4450    	21.64769      
419.0000      	23866.3484    	21.91485      
420.0000      	23809.5238    	21.99807      
421.0000      	23752.9691    	22.00477      
422.0000      	23696.6825    	21.94791      
423.0000      	23640.6619    	22.15810      
424.0000      	23584.9057    	22.48001      
425.0000      	23529.4118    	22.58110      
426.0000      	23474.1784    	22.77875      
427.0000      	23419.2037    	22.96153      
428.0000      	23364.4860    	23.08681      
429.0000      	23310.0233    	23.10466      
430.0000      	23255.8140    	23.21591      
431.0000      	23201.8561    	23.42710      
432.0000      	23148.1481    	23.63058      
433.0000      	23094.6882    	23.67552      
434.0000      	23041.4747    	23.76911      
435.0000      	22988.5057    	24.03876      
436.0000      	22935.7798    	24.23177      
437.0000      	22883.2952    	24.49813      
438.0000      	22831.0502    	24.52830      
439.0000      	22779.0433    	24.67431      
440.0000      	22727.2727    	24.83427      
441.0000      	22675.7370    	25.01892      
442.0000      	22624.4344    	25.05717      
443.0000      	22573.3634    	25.15179      
444.0000      	22522.5225    	25.19460      
445.0000      	22471.9101    	25.24379      
446.0000      	22421.5247    	25.26500      
447.0000      	22371.3647    	25.40760      
448.0000      	22321.4286    	25.30292      
449.0000      	22271.7149    	25.23648      
450.0000      	22222.2222    	25.19958      
451.0000      	22172.9490    	25.30720      
452.0000      	22123.8938    	25.45537      
453.0000      	22075.0552    	25.55039      
454.0000      	22026.4317    	25.70620      
455.0000      	21978.0220    	25.72887      
456.0000      	21929.8246    	25.91100      
457.0000      	21881.8381    	25.96457      
458.0000      	21834.0611    	26.00649      
459.0000      	21786.4924    	26.19580      
460.0000      	21739.1304    	26.34999      
461.0000      	21691.9740    	26.58655      
462.0000      	21645.0216    	26.68924      
463.0000      	21598.2721    	26.91299      
464.0000      	21551.7241    	27.01344      
465.0000      	21505.3763    	27.27023      
466.0000      	21459.2275    	27.49772      
467.0000      	21413.2762    	27.49168      
468.0000      	21367.5214    	27.58322      
469.0000      	21321.9616    	27.80328      
470.0000      	21276.5957    	27.98199      
471.0000      	21231.4225    	28.25148      
472.0000      	21186.4407    	28.56461      
473.0000      	21141.6490    	28.83146      
474.0000      	21097.0464    	29.15771      
475.0000      	21052.6316    	29.42893      
476.0000      	21008.4034    	29.61446      
477.0000      	20964.3606    	29.84179      
478.0000      	20920.5021    	29.92596      
479.0000      	20876.8267    	30.17883      
480.0000      	20833.3333    	30.44748      
481.0000      	20790.0208    	30.80862      
482.0000      	20746.8880    	31.13123      
483.0000      	20703.9337    	31.38462      
484.0000      	20661.1570    	31.62508      
485.0000      	20618.5567    	31.79517      
486.0000      	20576.1317    	32.09853      
487.0000      	20533.8809    	32.39967      
488.0000      	20491.8033    	32.63894      
489.0000      	20449.8978    	32.97464      
490.0000      	20408.1633    	33.24433      
491.0000      	20366.5988    	33.54623      
492.0000      	20325.2033    	33.70554      
493.0000      	20283.9757    	34.03716      
494.0000      	20242.9150    	34.25493      
495.0000      	20202.0202    	34.44825      
496.0000      	20161.2903    	34.70967      
497.0000      	20120.7243    	34.95767      
498.0000      	20080.3213    	35.15087      
499.0000      	20040.0802    	35.20998      
500.0000      	20000.0000    	35.34798      
501.0000      	19960.0798    	35.45715      
502.0000      	19920.3187    	35.55833      
503.0000      	19880.7157    	35.59709      
504.0000      	19841.2698    	35.65194      
505.0000      	19801.9802    	35.54120      
506.0000      	19762.8458    	35.46745      
507.0000      	19723.8659    	35.32214      
508.0000      	19685.0394    	35.20342      
509.0000      	19646.3654    	34.95997      
510.0000      	19607.8431    	34.67628      
511.0000      	19569.4716    	34.27807      
512.0000      	19531.2500    	33.78078      
513.0000      	19493.1774    	33.52959      
514.0000      	19455.2529    	33.11160      
515.0000      	19417.4757    	32.64650      
516.0000      	19379.8450    	32.02070      
517.0000      	19342.3598    	31.36472      
518.0000      	19305.0193    	30.72007      
519.0000      	19267.8227    	30.40170      
520.0000      	19230.7692    	29.72797      
521.0000      	19193.8580    	29.03112      
522.0000      	19157.0881    	28.39018      
523.0000      	19120.4589    	27.76664      
524.0000      	19083.9695    	27.14300      
525.0000      	19047.6190    	26.51760      
526.0000      	19011.4068    	26.22943      
527.0000      	18975.3321    	25.70678      
528.0000      	18939.3939    	25.21822      
529.0000      	18903.5917    	24.77578      
530.0000      	18867.9245    	24.40916      
531.0000      	18832.3917    	24.03991      
532.0000      	18796.9925    	23.71959      
533.0000      	18761.7261    	23.60693      
534.0000      	18726.5918    	23.40401      
535.0000      	18691.5888    	23.21815      
536.0000      	18656.7164    	22.96369      
537.0000      	18621.9739    	22.79793      
538.0000      	18587.3606    	22.75527      
539.0000      	18552.8757    	22.74821      
540.0000      	18518.5185    	22.73501      
541.0000      	18484.2884    	22.64803      
542.0000      	18450.1845    	22.61928      
543.0000      	18416.2063    	22.65207      
544.0000      	18382.3529    	22.64867      
545.0000      	18348.6239    	22.64509      
546.0000      	18315.0183    	22.59783      
547.0000      	18281.5356    	22.52402      
548.0000      	18248.1752    	22.46959      
549.0000      	18214.9362    	22.40517      
550.0000      	18181.8182    	22.31609      
551.0000      	18148.8203    	22.22766      
552.0000      	18115.9420    	22.00136      
553.0000      	18083.1826    	21.70736      
554.0000      	18050.5415    	21.41599      
555.0000      	18018.0180    	21.10973      
556.0000      	17985.6115    	20.75845      
557.0000      	17953.3214    	20.37405      
558.0000      	17921.1470    	20.19455      
559.0000      	17889.0877    	19.84542      
560.0000      	17857.1429    	19.47771      
561.0000      	17825.3119    	19.14326      
562.0000      	17793.5943    	18.80786      
563.0000      	17761.9893    	18.49661      
564.0000      	17730.4965    	18.32361      
565.0000      	17699.1150    	18.03281      
566.0000      	17667.8445    	17.82684      
567.0000      	17636.6843    	17.63283      
568.0000      	17605.6338    	17.51225      
569.0000      	17574.6924    	17.42248      
570.0000      	17543.8596    	17.41374      
571.0000      	17513.1349    	17.38991      
572.0000      	17482.5175    	17.53680      
573.0000      	17452.0070    	17.74438      
574.0000      	17421.6028    	17.93968      
575.0000      	17391.3043    	18.04290      
576.0000      	17361.1111    	18.33505      
577.0000      	17331.0225    	18.71080      
578.0000      	17301.0381    	19.14038      
579.0000      	17271.1572    	19.59359      
580.0000      	17241.3793    	20.11553      
581.0000      	17211.7040    	20.42740      
582.0000      	17182.1306    	21.09114      
583.0000      	17152.6587    	21.62687      
584.0000      	17123.2877    	22.16498      
585.0000      	17094.0171    	22.79549      
586.0000      	17064.8464    	23.36984      
587.0000      	17035.7751    	23.66080      
588.0000      	17006.8027    	24.18084      
589.0000      	16977.9287    	24.73814      
590.0000      	16949.1525    	25.21994      
591.0000      	16920.4738    	25.63625      
592.0000      	16891.8919    	26.02019      
593.0000      	16863.4064    	26.21797      
594.0000      	16835.0168    	26.51329      
595.0000      	16806.7227    	26.78208      
596.0000      	16778.5235    	26.98175      
597.0000      	16750.4188    	27.16830      
598.0000      	16722.4080    	27.28475      
599.0000      	16694.4908    	27.28372      
600.0000      	16666.6667    	27.30568      
601.0000      	16638.9351    	27.33158      
602.0000      	16611.2957    	27.43857      
603.0000      	16583.7479    	27.44600      
604.0000      	16556.2914    	27.36103      
605.0000      	16528.9256    	27.31007      
606.0000      	16501.6502    	27.30135      
607.0000      	16474.4646    	27.27311      
608.0000      	16447.3684    	27.19231      
609.0000      	16420.3612    	27.20868      
610.0000      	16393.4426    	27.19867      
611.0000      	16366.6121    	27.22651      
612.0000      	16339.8693    	27.24881      
613.0000      	16313.2137    	27.19547      
614.0000      	16286.6450    	27.14427      
615.0000      	16260.1626    	27.12894      
616.0000      	16233.7662    	27.14318      
617.0000      	16207.4554    	27.20980      
618.0000      	16181.2298    	27.24866      
619.0000      	16155.0889    	27.24252      
620.0000      	16129.0323    	27.31539      
621.0000      	16103.0596    	27.32088      
622.0000      	16077.1704    	27.27886      
623.0000      	16051.3644    	27.22138      
624.0000      	16025.6410    	27.25653      
625.0000      	16000.0000    	27.37362      
626.0000      	15974.4409    	27.38891      
627.0000      	15948.9633    	27.44853      
628.0000      	15923.5669    	27.49091      
629.0000      	15898.2512    	27.53180      
630.0000      	15873.0159    	27.43286      
631.0000      	15847.8605    	27.49638      
632.0000      	15822.7848    	27.58877      
633.0000      	15797.7883    	27.69901      
634.0000      	15772.8707    	27.79211      
635.0000      	15748.0315    	27.95335      
636.0000      	15723.2704    	28.02739      
637.0000      	15698.5871    	28.07714      
638.0000      	15673.9812    	28.10149      
639.0000      	15649.4523    	28.25918      
640.0000      	15625.0000    	28.38565      
641.0000      	15600.6240    	28.53114      
642.0000      	15576.3240    	28.60361      
643.0000      	15552.0995    	28.87995      
644.0000      	15527.9503    	29.10505      
645.0000      	15503.8760    	29.32164      
646.0000      	15479.8762    	29.56305      
647.0000      	15455.9505    	29.63913      
648.0000      	15432.0988    	29.90932      
649.0000      	15408.3205    	30.17891      
650.0000      	15384.6154    	30.50073      
651.0000      	15360.9831    	30.72742      
652.0000      	15337.4233    	31.08133      
653.0000      	15313.9357    	31.24237      
654.0000      	15290.5199    	31.54969      
655.0000      	15267.1756    	31.88713      
656.0000      	15243.9024    	32.20207      
657.0000      	15220.7002    	32.46996      
658.0000      	15197.5684    	32.60972      
659.0000      	15174.5068    	32.87416      
660.0000      	15151.5152    	33.24294      
661.0000      	15128.5930    	33.46902      
662.0000      	15105.7402    	33.78318      
663.0000      	15082.9563    	33.87664      
664.0000      	15060.2410    	34.12157      
665.0000      	15037.5940    	34.30017      
666.0000      	15015.0150    	34.57077      
667.0000      	14992.5037    	34.68739      
668.0000      	14970.0599    	34.76702      
669.0000      	14947.6831    	34.84946      
670.0000      	14925.3731    	34.88680      
671.0000      	14903.1297    	34.85327      
672.0000      	14880.9524    	34.86163      
673.0000      	14858.8410    	34.89897      
674.0000      	14836.7953    	34.82696      
675.0000      	14814.8148    	34.84655      
676.0000      	14792.8994    	34.86032      
677.0000      	14771.0487    	34.84227      
678.0000      	14749.2625    	34.76696      
679.0000      	14727.5405    	34.65938      
680.0000      	14705.8824    	34.44535      
681.0000      	14684.2878    	34.30956      
682.0000      	14662.7566    	34.24881      
683.0000      	14641.2884    	34.15375      
684.0000      	14619.8830    	34.01618      
685.0000      	14598.5401    	33.72111      
686.0000      	14577.2595    	33.49592      
687.0000      	14556.0408    	33.33330      
688.0000      	14534.8837    	33.34724      
689.0000      	14513.7881    	33.34198      
690.0000      	14492.7536    	33.33090      
691.0000      	14471.7800    	33.14678      
692.0000      	14450.8671    	32.85089      
693.0000      	14430.0144    	32.75045      
694.0000      	14409.2219    	32.67135      
695.0000      	14388.4892    	32.62889      
696.0000      	14367.8161    	32.41710      
697.0000      	14347.2023    	32.19859      
698.0000      	14326.6476    	32.12581      
699.0000      	14306.1516    	32.00364      
700.0000      	14285.7143    	31.98915      
701.0000      	14265.3352    	31.80457      
702.0000      	14245.0142    	31.59201      
703.0000      	14224.7511    	31.42650      
704.0000      	14204.5455    	31.26677      
705.0000      	14184.3972    	31.05875      
706.0000      	14164.3059    	30.73732      
707.0000      	14144.2716    	30.60109      
708.0000      	14124.2938    	30.62007      
709.0000      	14104.3724    	30.58131      
710.0000      	14084.5070    	30.46332      
711.0000      	14064.6976    	30.33305      
712.0000      	14044.9438    	30.14264      
713.0000      	14025.2454    	30.10933      
714.0000      	14005.6022    	29.98035      
715.0000      	13986.0140    	30.10594      
716.0000      	13966.4804    	30.35672      
717.0000      	13947.0014    	30.60252      
718.0000      	13927.5766    	30.70468      
719.0000      	13908.2058    	30.89116      
720.0000      	13888.8889    	31.05862      
721.0000      	13869.6255    	31.19817      
722.0000      	13850.4155    	31.43288      
723.0000      	13831.2586    	31.59700      
724.0000      	13812.1547    	32.01384      
725.0000      	13793.1034    	32.37819      
726.0000      	13774.1047    	32.83546      
727.0000      	13755.1582    	33.16359      
728.0000      	13736.2637    	33.34794      
729.0000      	13717.4211    	33.81155      
730.0000      	13698.6301    	34.22081      
731.0000      	13679.8906    	34.61573      
732.0000      	13661.2022    	34.85040      
733.0000      	13642.5648    	35.45760      
734.0000      	13623.9782    	36.18817      
735.0000      	13605.4422    	36.77412      
736.0000      	13586.9565    	37.41813      
737.0000      	13568.5210    	37.83857      
738.0000      	13550.1355    	38.89867      
739.0000      	13531.7997    	39.68421      
740.0000      	13513.5135    	40.54134      
741.0000      	13495.2767    	41.51268      
742.0000      	13477.0889    	42.05494      
743.0000      	13458.9502    	43.23726      
744.0000      	13440.8602    	44.39395      
745.0000      	13422.8188    	45.53832      
746.0000      	13404.8257    	46.71498      
747.0000      	13386.8809    	47.36998      
748.0000      	13368.9840    	48.90802      
749.0000      	13351.1348    	50.41876      
750.0000      	13333.3333    	51.93229      
751.0000      	13315.5792    	52.69604      
752.0000      	13297.8723    	54.29036      
753.0000      	13280.2125    	56.17183      
754.0000      	13262.5995    	58.02593      
755.0000      	13245.0331    	60.01863      
756.0000      	13227.5132    	60.94507      
757.0000      	13210.0396    	62.60193      
758.0000      	13192.6121    	64.33817      
759.0000      	13175.2306    	66.15513      
760.0000      	13157.8947    	67.88308      
761.0000      	13140.6045    	68.71284      
762.0000      	13123.3596    	70.13139      
763.0000      	13106.1599    	71.65881      
764.0000      	13089.0052    	72.99526      
765.0000      	13071.8954    	73.76741      
766.0000      	13054.8303    	74.95444      
767.0000      	13037.8096    	75.90508      
768.0000      	13020.8333    	76.55986      
769.0000      	13003.9012    	77.29073      
770.0000      	12987.0130    	77.60889      
771.0000      	12970.1686    	78.39078      
772.0000      	12953.3679    	79.33502      
773.0000      	12936.6106    	80.13652      
774.0000      	12919.8966    	80.32172      
775.0000      	12903.2258    	80.44799      
776.0000      	12886.5979    	80.79025      
777.0000      	12870.0129    	81.55345      
778.0000      	12853.4704    	81.82409      
779.0000      	12836.9705    	82.06847      
780.0000      	12820.5128    	82.00146      
781.0000      	12804.0973    	81.98094      
782.0000      	12787.7238    	82.53677      
783.0000      	12771.3921    	83.19484      
784.0000      	12755.1020    	83.37168      
785.0000      	12738.8535    	83.50996      
786.0000      	12722.6463    	83.54906      
787.0000      	12706.4803    	83.60775      
788.0000      	12690.3553    	83.92220      
789.0000      	12674.2712    	84.12846      
790.0000      	12658.2278    	84.27370      
791.0000      	12642.2250    	83.68173      
792.0000      	12626.2626    	83.45526      
793.0000      	12610.3405    	83.43777      
794.0000      	12594.4584    	83.87643      
795.0000      	12578.6164    	84.33131      
796.0000      	12562.8141    	84.52151      
797.0000      	12547.0514    	84.44821      
798.0000      	12531.3283    	84.21137      
799.0000      	12515.6446    	84.07390      
800.0000      	12500.0000    	84.49094      
